data,r0
2020-07-02,3.1508564563127286
2020-07-03,2.4888561383832815
2020-07-04,1.6311256118250388
2020-07-05,1.5267079099411183
2020-07-06,1.0953444645570802
2020-07-07,0.8662269389009871
2020-07-08,0.7850260038663376
2020-07-09,0.6340487492319146
2020-07-10,0.648571471534798
2020-07-11,0.936754651201512
2020-07-12,0.8914484105072823
2020-07-13,0.9641116650445573
2020-07-14,1.0340758305947204
2020-07-15,1.5071264930396948
2020-07-16,1.8599690163499074
2020-07-17,1.9796714605653645
2020-07-18,1.5963716384923312
2020-07-19,1.5940370308325391
2020-07-20,1.5573605027098139
2020-07-21,1.3425612043118162
2020-07-22,1.6198818661961047
2020-07-23,3.6023228712089286
2020-07-24,3.9044563458963477
2020-07-25,4.479817503250208
2020-07-26,3.8611856081239635
2020-07-27,3.092455607311398
2020-07-28,2.380643602623468
2020-07-29,1.733957719232634
2020-07-30,0.7622182332171448
2020-07-31,0.5379877332273948
2020-08-01,0.2815308278098103
2020-08-02,0.33678079256043975
2020-08-03,0.3800527844463484
2020-08-04,0.4810001903534327
2020-08-05,0.8067607055281827
2020-08-06,1.0717976023562938
2020-08-07,1.212489778552984
2020-08-08,1.4104676665171931
2020-08-09,1.3576542657837996
2020-08-10,1.3259233169037925
2020-08-11,1.668175939219171
2020-08-12,1.2621352206462089
2020-08-13,0.9826674483531546
2020-08-14,1.1799662586234483
2020-08-15,1.5609273606312097
2020-08-16,1.51130113113954
2020-08-17,1.4647886277231925
2020-08-18,1.270523851033991
2020-08-19,1.407548106259848
2020-08-20,1.2870821434502033
2020-08-21,1.0047215688551379
2020-08-22,1.025006539003327
2020-08-23,1.234504146266646
2020-08-24,1.2193840166360155
2020-08-25,1.0709494090633394
2020-08-26,1.1530305299819363
2020-08-27,1.1400746741002787
2020-08-28,1.181146764883793
2020-08-29,0.8940090975764518
2020-08-30,0.6473610389349298
2020-08-31,0.6600737404424636
2020-09-01,0.8861615740155689
2020-09-02,0.7026078232423958
2020-09-03,1.1003429587437503
2020-09-04,1.0961835888575817
2020-09-05,0.9639027197665139
2020-09-06,1.0091388710132954
2020-09-07,1.0203241598425348
2020-09-08,1.110038922132645
2020-09-09,1.8276631721584862
2020-09-10,1.4951400659600882
2020-09-11,1.5382877343935808
2020-09-12,1.5603035048567986
2020-09-13,1.4576217999297365
2020-09-14,1.3562693879971577
2020-09-15,1.1807525670015184
2020-09-16,0.6427939511265635
2020-09-17,0.8194406313212085
2020-09-18,0.805800976496693
2020-09-19,0.7677048094919992
2020-09-20,0.789600668979118
2020-09-21,0.8219404346330439
2020-09-22,0.7221857860620122
2020-09-23,0.6106240000957938
2020-09-24,0.32002536899812817
2020-09-25,0.551664354574457
2020-09-26,0.753895147311546
2020-09-27,0.8191991772362507
2020-09-28,0.9212801767382199
2020-09-29,0.9447859218587917
2020-09-30,1.291286295136524
2020-10-01,1.5542258522451917
2020-10-02,1.553058027253861
2020-10-03,1.239983635607302
2020-10-04,1.197092096045906
2020-10-05,1.1169531430860982
2020-10-06,1.2087428939094627
2020-10-07,1.361891370667332
2020-10-08,1.4745380691290015
2020-10-09,1.4547663313108607
2020-10-10,1.4485309416492835
2020-10-11,1.4241062983438737
2020-10-12,1.3666864847581208
2020-10-13,1.152594696063194
2020-10-14,0.8936495208459752
2020-10-15,1.0270835731852705
2020-10-16,0.8874712882380756
