data,r0
2020-07-02,3.154425751315939
2020-07-03,2.488764600742764
2020-07-04,1.6325065829459409
2020-07-05,1.5280023475035254
2020-07-06,1.0949743237945277
2020-07-07,0.8681369760767906
2020-07-08,0.7847713585970668
2020-07-09,0.6333152963070958
2020-07-10,0.6489576749189127
2020-07-11,0.9372931523467329
2020-07-12,0.893871588249704
2020-07-13,0.9651775646491432
2020-07-14,1.034861516670748
2020-07-15,1.5055528308713217
2020-07-16,1.8615835026967584
2020-07-17,1.9813831210031765
2020-07-18,1.5988312328530712
2020-07-19,1.5961562727825567
2020-07-20,1.5578357733109016
2020-07-21,1.3415710798998606
2020-07-22,1.619895470919336
2020-07-23,3.6024038324685423
2020-07-24,3.90773553172328
2020-07-25,4.481068192671029
2020-07-26,3.8594451772567706
2020-07-27,3.091661320846557
2020-07-28,2.3794531960343033
2020-07-29,1.733957135233312
2020-07-30,0.762039284369104
2020-07-31,0.5378997284829165
2020-08-01,0.28122579156476685
2020-08-02,0.33710309743642136
2020-08-03,0.38005557723484956
2020-08-04,0.4803751939754046
2020-08-05,0.8062603543816426
2020-08-06,1.0712486266791674
2020-08-07,1.212987816473474
2020-08-08,1.4079663898780916
2020-08-09,1.3580163922155517
2020-08-10,1.3255635782217612
2020-08-11,1.6678871101715427
2020-08-12,1.2620771279194154
2020-08-13,0.9831137786761098
2020-08-14,1.1817428844467017
2020-08-15,1.5607552917082457
2020-08-16,1.5111728241273967
2020-08-17,1.465459218435705
2020-08-18,1.2711213334543006
2020-08-19,1.4082662937190593
2020-08-20,1.2870062937075646
2020-08-21,1.0047310088809547
2020-08-22,1.024320303177959
2020-08-23,1.2341497589624995
2020-08-24,1.220402993838367
2020-08-25,1.0706657328849234
2020-08-26,1.1527923231167245
2020-08-27,1.140626415597756
2020-08-28,1.18031474508305
2020-08-29,0.8939005665775048
2020-08-30,0.6468004528215376
2020-08-31,0.6597221589819198
2020-09-01,0.88702785776778
2020-09-02,0.7025753470712356
2020-09-03,1.1000930977232533
2020-09-04,1.0965189729165938
2020-09-05,0.964035946132504
2020-09-06,1.0090777843999184
2020-09-07,1.0202750108997374
2020-09-08,1.1091368136704787
2020-09-09,1.8275395709354876
2020-09-10,1.496555502784517
2020-09-11,1.5403112088093278
2020-09-12,1.5597236749774177
2020-09-13,1.4578970911100961
2020-09-14,1.356233774350662
2020-09-15,1.1800013549322106
2020-09-16,0.6424884696013019
2020-09-17,0.8192912210146324
2020-09-18,0.8052914113320142
2020-09-19,0.7671111631296557
2020-09-20,0.7902274571366312
2020-09-21,0.8225148647058306
2020-09-22,0.7222874937719669
2020-09-23,0.6107665475362775
2020-09-24,0.31985259175258546
2020-09-25,0.5518310546887205
2020-09-26,0.7539007916266757
2020-09-27,0.8188998626181494
2020-09-28,0.9203518284883034
2020-09-29,0.944730252823279
2020-09-30,1.2915044206449655
2020-10-01,1.5546263464718222
2020-10-02,1.5540752225806624
2020-10-03,1.2374484149951739
2020-10-04,1.196809820137849
2020-10-05,1.1160948012302836
2020-10-06,1.2093202323668406
2020-10-07,1.3621950472400017
2020-10-08,1.473745385630983
2020-10-09,1.4542316385965586
2020-10-10,1.4476423953426665
2020-10-11,1.4249185071829038
2020-10-12,1.366872754561454
2020-10-13,1.1526199231737104
2020-10-14,0.8936564364578076
2020-10-15,1.0270160629799627
2020-10-16,0.8871932816313141
2020-10-17,0.8450904641888135
2020-10-18,1.1190617701371666
2020-10-19,1.1198590270459607
2020-10-20,1.5054222554042904
2020-10-21,1.6118583665216117
2020-10-22,1.6245986696655306
2020-10-23,1.6407917342928833
2020-10-24,2.0301030803319033
