data,r0
2020-07-02,3.1503975282223413
2020-07-03,2.4903058774421005
2020-07-04,1.6321968540564307
2020-07-05,1.5249454560172324
2020-07-06,1.095683247461973
2020-07-07,0.8665563391219797
2020-07-08,0.785718307614692
2020-07-09,0.6341066022970401
2020-07-10,0.6482554760169925
2020-07-11,0.9382034445178248
2020-07-12,0.8934241356370232
2020-07-13,0.9648234859818613
2020-07-14,1.0342769598835435
2020-07-15,1.5052652250077343
2020-07-16,1.8624634991466633
2020-07-17,1.9790437781468537
2020-07-18,1.6010893291617572
2020-07-19,1.593688218405114
2020-07-20,1.556406274236065
2020-07-21,1.3410563923128802
2020-07-22,1.6192231209460175
2020-07-23,3.601963574211674
2020-07-24,3.9066956493417115
2020-07-25,4.479705548543868
2020-07-26,3.859549267027092
2020-07-27,3.0937429955217834
2020-07-28,2.381129355320856
2020-07-29,1.7333762466392697
2020-07-30,0.7616701995974822
2020-07-31,0.5381264580525148
2020-08-01,0.2813907356338544
2020-08-02,0.3373291418276767
2020-08-03,0.37994891553874827
2020-08-04,0.4804828225098948
2020-08-05,0.8067062948992758
2020-08-06,1.0716446961267923
2020-08-07,1.2132585842336236
2020-08-08,1.4092834291442469
2020-08-09,1.3568507565857113
2020-08-10,1.3266837203187838
2020-08-11,1.6689703308837371
2020-08-12,1.261721994360823
2020-08-13,0.9817397649279294
2020-08-14,1.180528028560189
2020-08-15,1.5601158355663332
2020-08-16,1.5107435481521279
2020-08-17,1.4649546720347484
2020-08-18,1.2707867350512096
2020-08-19,1.4077607734714477
2020-08-20,1.287152725385989
2020-08-21,1.004716602226732
2020-08-22,1.0248764312202086
2020-08-23,1.2345866033601365
2020-08-24,1.2195426220419523
2020-08-25,1.0719515743808148
2020-08-26,1.152220415524405
2020-08-27,1.140967651125861
2020-08-28,1.18085095578467
2020-08-29,0.8937291175495613
2020-08-30,0.6472428332026318
2020-08-31,0.6592075589132674
2020-09-01,0.8856718768291926
2020-09-02,0.7024463354084244
2020-09-03,1.099851260489926
2020-09-04,1.0968250125178647
2020-09-05,0.9636439986287664
2020-09-06,1.009110916478758
2020-09-07,1.020112455248702
2020-09-08,1.1094005298510177
2020-09-09,1.8277565860153917
2020-09-10,1.4965822092157512
2020-09-11,1.53868154999015
2020-09-12,1.5598776311624547
2020-09-13,1.4583881101583034
2020-09-14,1.3566794510146478
2020-09-15,1.179519652420459
2020-09-16,0.64253730554877
2020-09-17,0.8186011033928826
2020-09-18,0.8048794890267642
2020-09-19,0.7670308076112489
2020-09-20,0.7898794996344425
2020-09-21,0.8222113755574229
2020-09-22,0.7218154647642069
2020-09-23,0.6106254006882831
2020-09-24,0.31992557340310124
2020-09-25,0.5506316562424882
2020-09-26,0.7539742572549583
2020-09-27,0.8181628522555519
2020-09-28,0.9214921068943575
2020-09-29,0.9451805088749047
2020-09-30,1.2910341811301678
2020-10-01,1.5542728063219913
2020-10-02,1.5536780774532983
2020-10-03,1.2388790824167457
2020-10-04,1.1969531833988483
2020-10-05,1.1160270667418193
2020-10-06,1.2076593002420126
2020-10-07,1.3620993986840835
2020-10-08,1.473439522242238
2020-10-09,1.4553165061683795
2020-10-10,1.4501893248497515
2020-10-11,1.4240322119037385
