data,r0
2020-07-02,3.1483908640760405
2020-07-03,2.489389250601579
2020-07-04,1.6321040529957824
2020-07-05,1.5260282512043435
2020-07-06,1.095592433799099
2020-07-07,0.8668448663025837
2020-07-08,0.7839048688430246
2020-07-09,0.6337300448008036
2020-07-10,0.6478475983587301
2020-07-11,0.9364661333623272
2020-07-12,0.8929511412928158
2020-07-13,0.9650277710288833
2020-07-14,1.0347372202103309
2020-07-15,1.5065299182287613
2020-07-16,1.8630927561688517
2020-07-17,1.9790951127834575
2020-07-18,1.597907971451653
2020-07-19,1.594115488012554
2020-07-20,1.5582826135884391
2020-07-21,1.3428897220221074
2020-07-22,1.6199097930998398
2020-07-23,3.6026898929817968
2020-07-24,3.908282312507959
2020-07-25,4.48056480602525
2020-07-26,3.8586705553430365
2020-07-27,3.0929745742765347
2020-07-28,2.3799696355991253
2020-07-29,1.73457831123923
2020-07-30,0.7616889997931588
2020-07-31,0.537530198815594
2020-08-01,0.28166065548444824
2020-08-02,0.33688442284949466
2020-08-03,0.38033079199875414
2020-08-04,0.48033328634847533
2020-08-05,0.8063934360550026
2020-08-06,1.0721224869672745
2020-08-07,1.212399872475767
2020-08-08,1.4095471759574159
2020-08-09,1.3575754204673094
2020-08-10,1.3269620564080638
2020-08-11,1.6692099658996908
2020-08-12,1.261915523914167
2020-08-13,0.9814461490477451
2020-08-14,1.1796666715318134
2020-08-15,1.561274286407247
2020-08-16,1.5111464701607227
2020-08-17,1.4663677452000294
2020-08-18,1.2711392624501998
2020-08-19,1.408010823468024
2020-08-20,1.286168679269967
2020-08-21,1.0039913735300057
2020-08-22,1.0256577902513426
2020-08-23,1.2345130238331905
2020-08-24,1.2203721009793689
2020-08-25,1.0707558428530854
2020-08-26,1.1522892630000146
2020-08-27,1.139969097717889
2020-08-28,1.1806844331215258
2020-08-29,0.8947364943998585
2020-08-30,0.6470345223223748
2020-08-31,0.6597184783505592
2020-09-01,0.8859560737730984
2020-09-02,0.7025035479769546
2020-09-03,1.1005385647018209
2020-09-04,1.0964583094835831
2020-09-05,0.9638663688554903
2020-09-06,1.0094051915981883
2020-09-07,1.0214193555091733
2020-09-08,1.1096001196811298
2020-09-09,1.8278452062385213
2020-09-10,1.4957244788111805
2020-09-11,1.5388669226402654
2020-09-12,1.5594705326750655
2020-09-13,1.45714195733264
2020-09-14,1.3557730903108296
2020-09-15,1.180795270355178
2020-09-16,0.6430645583336849
2020-09-17,0.819230953790527
2020-09-18,0.8060825955763691
2020-09-19,0.767379780988317
2020-09-20,0.7904174144119684
2020-09-21,0.8220352361940341
2020-09-22,0.7214690429630257
2020-09-23,0.6108584878078182
2020-09-24,0.31970502053068384
2020-09-25,0.5508455171569981
2020-09-26,0.7536257154192301
2020-09-27,0.8186535136679042
2020-09-28,0.9205635638038978
2020-09-29,0.9449137339003806
2020-09-30,1.2916083899332222
2020-10-01,1.5549484594296443
2020-10-02,1.5540688605304043
2020-10-03,1.2390876713459817
2020-10-04,1.1966628914427462
2020-10-05,1.1169776733840884
2020-10-06,1.2090974527389833
2020-10-07,1.362951926425535
2020-10-08,1.4738969285277732
2020-10-09,1.4555035206345484
2020-10-10,1.4482630869067377
2020-10-11,1.424158897495129
2020-10-12,1.3661586544823956
2020-10-13,1.1544544619315873
2020-10-14,0.8928332535985395
2020-10-15,1.0268122674684241
2020-10-16,0.887137675994482
2020-10-17,0.84458082455176
2020-10-18,1.118806555295012
2020-10-19,1.1204492345085846
2020-10-20,1.5053366384839668
2020-10-21,1.6104690403923052
2020-10-22,1.6257705333178354
2020-10-23,1.6396722500462129
2020-10-24,2.0303196403159784
2020-10-25,1.6462587721969457
2020-10-26,1.564157462050584
2020-10-27,1.5885226704805462
2020-10-28,1.7991524977996622
2020-10-29,1.4625997715615837
2020-10-30,1.2432184642324202
2020-10-31,0.8880996987889344
2020-11-01,0.8416074017373562
2020-11-02,0.8237586820577658
